namespace SunSpecGraphing
{
    internal class Global
    {
        static public int SAMPLE_SIZE = 2048;
        static public double SPECTROMETER_RANGE = 707.33; // This is from 177.62nm -> 884.95nm
        static public List<double> WAVELENGTHS = new List<double>
        {
            177.62,
            178.00,
            178.39,
            178.77,
            179.16,
            179.54,
            179.93,
            180.31,
            180.70,
            181.08,
            181.47,
            181.85,
            182.24,
            182.62,
            183.01,
            183.39,
            183.77,
            184.16,
            184.54,
            184.93,
            185.31,
            185.70,
            186.08,
            186.46,
            186.85,
            187.23,
            187.62,
            188.00,
            188.39,
            188.77,
            189.15,
            189.54,
            189.92,
            190.31,
            190.69,
            191.07,
            191.46,
            191.84,
            192.22,
            192.61,
            192.99,
            193.38,
            193.76,
            194.14,
            194.53,
            194.91,
            195.29,
            195.68,
            196.06,
            196.44,
            196.83,
            197.21,
            197.59,
            197.98,
            198.36,
            198.74,
            199.13,
            199.51,
            199.89,
            200.28,
            200.66,
            201.04,
            201.43,
            201.81,
            202.19,
            202.58,
            202.96,
            203.34,
            203.72,
            204.11,
            204.49,
            204.87,
            205.26,
            205.64,
            206.02,
            206.40,
            206.79,
            207.17,
            207.55,
            207.93,
            208.32,
            208.70,
            209.08,
            209.46,
            209.85,
            210.23,
            210.61,
            210.99,
            211.38,
            211.76,
            212.14,
            212.52,
            212.90,
            213.29,
            213.67,
            214.05,
            214.43,
            214.81,
            215.20,
            215.58,
            215.96,
            216.34,
            216.72,
            217.11,
            217.49,
            217.87,
            218.25,
            218.63,
            219.01,
            219.40,
            219.78,
            220.16,
            220.54,
            220.92,
            221.30,
            221.68,
            222.07,
            222.45,
            222.83,
            223.21,
            223.59,
            223.97,
            224.35,
            224.73,
            225.12,
            225.50,
            225.88,
            226.26,
            226.64,
            227.02,
            227.40,
            227.78,
            228.16,
            228.54,
            228.93,
            229.31,
            229.69,
            230.07,
            230.45,
            230.83,
            231.21,
            231.59,
            231.97,
            232.35,
            232.73,
            233.11,
            233.49,
            233.87,
            234.25,
            234.63,
            235.01,
            235.39,
            235.77,
            236.15,
            236.53,
            236.91,
            237.29,
            237.67,
            238.05,
            238.43,
            238.81,
            239.19,
            239.57,
            239.95,
            240.33,
            240.71,
            241.09,
            241.47,
            241.85,
            242.23,
            242.61,
            242.99,
            243.37,
            243.75,
            244.13,
            244.51,
            244.89,
            245.27,
            245.65,
            246.03,
            246.41,
            246.79,
            247.17,
            247.55,
            247.92,
            248.30,
            248.68,
            249.06,
            249.44,
            249.82,
            250.20,
            250.58,
            250.96,
            251.34,
            251.71,
            252.09,
            252.47,
            252.85,
            253.23,
            253.61,
            253.99,
            254.37,
            254.74,
            255.12,
            255.50,
            255.88,
            256.26,
            256.64,
            257.02,
            257.39,
            257.77,
            258.15,
            258.53,
            258.91,
            259.29,
            259.66,
            260.04,
            260.42,
            260.80,
            261.18,
            261.55,
            261.93,
            262.31,
            262.69,
            263.07,
            263.44,
            263.82,
            264.20,
            264.58,
            264.96,
            265.33,
            265.71,
            266.09,
            266.47,
            266.84,
            267.22,
            267.60,
            267.98,
            268.35,
            268.73,
            269.11,
            269.49,
            269.86,
            270.24,
            270.62,
            270.99,
            271.37,
            271.75,
            272.13,
            272.50,
            272.88,
            273.26,
            273.63,
            274.01,
            274.39,
            274.76,
            275.14,
            275.52,
            275.89,
            276.27,
            276.65,
            277.03,
            277.40,
            277.78,
            278.15,
            278.53,
            278.91,
            279.28,
            279.66,
            280.04,
            280.41,
            280.79,
            281.17,
            281.54,
            281.92,
            282.29,
            282.67,
            283.05,
            283.42,
            283.80,
            284.18,
            284.55,
            284.93,
            285.30,
            285.68,
            286.06,
            286.43,
            286.81,
            287.18,
            287.56,
            287.93,
            288.31,
            288.69,
            289.06,
            289.44,
            289.81,
            290.19,
            290.56,
            290.94,
            291.31,
            291.69,
            292.06,
            292.44,
            292.82,
            293.19,
            293.57,
            293.94,
            294.32,
            294.69,
            295.07,
            295.44,
            295.82,
            296.19,
            296.57,
            296.94,
            297.32,
            297.69,
            298.07,
            298.44,
            298.81,
            299.19,
            299.56,
            299.94,
            300.31,
            300.69,
            301.06,
            301.44,
            301.81,
            302.19,
            302.56,
            302.93,
            303.31,
            303.68,
            304.06,
            304.43,
            304.81,
            305.18,
            305.55,
            305.93,
            306.30,
            306.68,
            307.05,
            307.42,
            307.80,
            308.17,
            308.55,
            308.92,
            309.29,
            309.67,
            310.04,
            310.41,
            310.79,
            311.16,
            311.53,
            311.91,
            312.28,
            312.66,
            313.03,
            313.40,
            313.78,
            314.15,
            314.52,
            314.90,
            315.27,
            315.64,
            316.01,
            316.39,
            316.76,
            317.13,
            317.51,
            317.88,
            318.25,
            318.63,
            319.00,
            319.37,
            319.74,
            320.12,
            320.49,
            320.86,
            321.24,
            321.61,
            321.98,
            322.35,
            322.73,
            323.10,
            323.47,
            323.84,
            324.22,
            324.59,
            324.96,
            325.33,
            325.70,
            326.08,
            326.45,
            326.82,
            327.19,
            327.57,
            327.94,
            328.31,
            328.68,
            329.05,
            329.42,
            329.80,
            330.17,
            330.54,
            330.91,
            331.28,
            331.66,
            332.03,
            332.40,
            332.77,
            333.14,
            333.51,
            333.88,
            334.26,
            334.63,
            335.00,
            335.37,
            335.74,
            336.11,
            336.48,
            336.86,
            337.23,
            337.60,
            337.97,
            338.34,
            338.71,
            339.08,
            339.45,
            339.82,
            340.19,
            340.57,
            340.94,
            341.31,
            341.68,
            342.05,
            342.42,
            342.79,
            343.16,
            343.53,
            343.90,
            344.27,
            344.64,
            345.01,
            345.38,
            345.75,
            346.12,
            346.49,
            346.86,
            347.23,
            347.60,
            347.97,
            348.34,
            348.71,
            349.08,
            349.45,
            349.82,
            350.19,
            350.56,
            350.93,
            351.30,
            351.67,
            352.04,
            352.41,
            352.78,
            353.15,
            353.52,
            353.89,
            354.26,
            354.63,
            355.00,
            355.37,
            355.74,
            356.11,
            356.48,
            356.85,
            357.22,
            357.59,
            357.95,
            358.32,
            358.69,
            359.06,
            359.43,
            359.80,
            360.17,
            360.54,
            360.91,
            361.27,
            361.64,
            362.01,
            362.38,
            362.75,
            363.12,
            363.49,
            363.86,
            364.22,
            364.59,
            364.96,
            365.33,
            365.70,
            366.07,
            366.43,
            366.80,
            367.17,
            367.54,
            367.91,
            368.28,
            368.64,
            369.01,
            369.38,
            369.75,
            370.12,
            370.48,
            370.85,
            371.22,
            371.59,
            371.96,
            372.32,
            372.69,
            373.06,
            373.43,
            373.79,
            374.16,
            374.53,
            374.90,
            375.26,
            375.63,
            376.00,
            376.37,
            376.73,
            377.10,
            377.47,
            377.83,
            378.20,
            378.57,
            378.94,
            379.30,
            379.67,
            380.04,
            380.40,
            380.77,
            381.14,
            381.50,
            381.87,
            382.24,
            382.61,
            382.97,
            383.34,
            383.70,
            384.07,
            384.44,
            384.80,
            385.17,
            385.54,
            385.90,
            386.27,
            386.64,
            387.00,
            387.37,
            387.74,
            388.10,
            388.47,
            388.83,
            389.20,
            389.57,
            389.93,
            390.30,
            390.66,
            391.03,
            391.40,
            391.76,
            392.13,
            392.49,
            392.86,
            393.22,
            393.59,
            393.95,
            394.32,
            394.69,
            395.05,
            395.42,
            395.78,
            396.15,
            396.51,
            396.88,
            397.24,
            397.61,
            397.97,
            398.34,
            398.70,
            399.07,
            399.43,
            399.80,
            400.16,
            400.53,
            400.89,
            401.26,
            401.62,
            401.99,
            402.35,
            402.72,
            403.08,
            403.45,
            403.81,
            404.18,
            404.54,
            404.90,
            405.27,
            405.63,
            406.00,
            406.36,
            406.73,
            407.09,
            407.45,
            407.82,
            408.18,
            408.55,
            408.91,
            409.28,
            409.64,
            410.00,
            410.37,
            410.73,
            411.09,
            411.46,
            411.82,
            412.19,
            412.55,
            412.91,
            413.28,
            413.64,
            414.00,
            414.37,
            414.73,
            415.09,
            415.46,
            415.82,
            416.18,
            416.55,
            416.91,
            417.27,
            417.64,
            418.00,
            418.36,
            418.73,
            419.09,
            419.45,
            419.81,
            420.18,
            420.54,
            420.90,
            421.27,
            421.63,
            421.99,
            422.35,
            422.72,
            423.08,
            423.44,
            423.80,
            424.17,
            424.53,
            424.89,
            425.25,
            425.62,
            425.98,
            426.34,
            426.70,
            427.06,
            427.43,
            427.79,
            428.15,
            428.51,
            428.87,
            429.24,
            429.60,
            429.96,
            430.32,
            430.68,
            431.05,
            431.41,
            431.77,
            432.13,
            432.49,
            432.85,
            433.22,
            433.58,
            433.94,
            434.30,
            434.66,
            435.02,
            435.38,
            435.74,
            436.11,
            436.47,
            436.83,
            437.19,
            437.55,
            437.91,
            438.27,
            438.63,
            438.99,
            439.35,
            439.72,
            440.08,
            440.44,
            440.80,
            441.16,
            441.52,
            441.88,
            442.24,
            442.60,
            442.96,
            443.32,
            443.68,
            444.04,
            444.40,
            444.76,
            445.12,
            445.48,
            445.84,
            446.20,
            446.56,
            446.92,
            447.28,
            447.64,
            448.00,
            448.36,
            448.72,
            449.08,
            449.44,
            449.80,
            450.16,
            450.52,
            450.88,
            451.24,
            451.60,
            451.96,
            452.32,
            452.68,
            453.04,
            453.40,
            453.76,
            454.12,
            454.47,
            454.83,
            455.19,
            455.55,
            455.91,
            456.27,
            456.63,
            456.99,
            457.35,
            457.71,
            458.06,
            458.42,
            458.78,
            459.14,
            459.50,
            459.86,
            460.22,
            460.57,
            460.93,
            461.29,
            461.65,
            462.01,
            462.37,
            462.72,
            463.08,
            463.44,
            463.80,
            464.16,
            464.52,
            464.87,
            465.23,
            465.59,
            465.95,
            466.31,
            466.66,
            467.02,
            467.38,
            467.74,
            468.09,
            468.45,
            468.81,
            469.17,
            469.52,
            469.88,
            470.24,
            470.60,
            470.95,
            471.31,
            471.67,
            472.03,
            472.38,
            472.74,
            473.10,
            473.46,
            473.81,
            474.17,
            474.53,
            474.88,
            475.24,
            475.60,
            475.95,
            476.31,
            476.67,
            477.02,
            477.38,
            477.74,
            478.09,
            478.45,
            478.81,
            479.16,
            479.52,
            479.88,
            480.23,
            480.59,
            480.94,
            481.30,
            481.66,
            482.01,
            482.37,
            482.73,
            483.08,
            483.44,
            483.79,
            484.15,
            484.51,
            484.86,
            485.22,
            485.57,
            485.93,
            486.28,
            486.64,
            487.00,
            487.35,
            487.71,
            488.06,
            488.42,
            488.77,
            489.13,
            489.48,
            489.84,
            490.19,
            490.55,
            490.90,
            491.26,
            491.61,
            491.97,
            492.32,
            492.68,
            493.03,
            493.39,
            493.74,
            494.10,
            494.45,
            494.81,
            495.16,
            495.52,
            495.87,
            496.23,
            496.58,
            496.93,
            497.29,
            497.64,
            498.00,
            498.35,
            498.71,
            499.06,
            499.41,
            499.77,
            500.12,
            500.48,
            500.83,
            501.18,
            501.54,
            501.89,
            502.25,
            502.60,
            502.95,
            503.31,
            503.66,
            504.01,
            504.37,
            504.72,
            505.08,
            505.43,
            505.78,
            506.14,
            506.49,
            506.84,
            507.20,
            507.55,
            507.90,
            508.26,
            508.61,
            508.96,
            509.31,
            509.67,
            510.02,
            510.37,
            510.73,
            511.08,
            511.43,
            511.78,
            512.14,
            512.49,
            512.84,
            513.19,
            513.55,
            513.90,
            514.25,
            514.60,
            514.96,
            515.31,
            515.66,
            516.01,
            516.37,
            516.72,
            517.07,
            517.42,
            517.77,
            518.13,
            518.48,
            518.83,
            519.18,
            519.53,
            519.89,
            520.24,
            520.59,
            520.94,
            521.29,
            521.64,
            522.00,
            522.35,
            522.70,
            523.05,
            523.40,
            523.75,
            524.10,
            524.45,
            524.81,
            525.16,
            525.51,
            525.86,
            526.21,
            526.56,
            526.91,
            527.26,
            527.61,
            527.96,
            528.32,
            528.67,
            529.02,
            529.37,
            529.72,
            530.07,
            530.42,
            530.77,
            531.12,
            531.47,
            531.82,
            532.17,
            532.52,
            532.87,
            533.22,
            533.57,
            533.92,
            534.27,
            534.62,
            534.97,
            535.32,
            535.67,
            536.02,
            536.37,
            536.72,
            537.07,
            537.42,
            537.77,
            538.12,
            538.47,
            538.82,
            539.17,
            539.52,
            539.87,
            540.22,
            540.57,
            540.91,
            541.26,
            541.61,
            541.96,
            542.31,
            542.66,
            543.01,
            543.36,
            543.71,
            544.06,
            544.41,
            544.75,
            545.10,
            545.45,
            545.80,
            546.15,
            546.50,
            546.85,
            547.19,
            547.54,
            547.89,
            548.24,
            548.59,
            548.94,
            549.28,
            549.63,
            549.98,
            550.33,
            550.68,
            551.03,
            551.37,
            551.72,
            552.07,
            552.42,
            552.76,
            553.11,
            553.46,
            553.81,
            554.16,
            554.50,
            554.85,
            555.20,
            555.55,
            555.89,
            556.24,
            556.59,
            556.93,
            557.28,
            557.63,
            557.98,
            558.32,
            558.67,
            559.02,
            559.36,
            559.71,
            560.06,
            560.41,
            560.75,
            561.10,
            561.45,
            561.79,
            562.14,
            562.49,
            562.83,
            563.18,
            563.53,
            563.87,
            564.22,
            564.56,
            564.91,
            565.26,
            565.60,
            565.95,
            566.30,
            566.64,
            566.99,
            567.33,
            567.68,
            568.03,
            568.37,
            568.72,
            569.06,
            569.41,
            569.76,
            570.10,
            570.45,
            570.79,
            571.14,
            571.48,
            571.83,
            572.17,
            572.52,
            572.86,
            573.21,
            573.55,
            573.90,
            574.25,
            574.59,
            574.94,
            575.28,
            575.63,
            575.97,
            576.32,
            576.66,
            577.00,
            577.35,
            577.69,
            578.04,
            578.38,
            578.73,
            579.07,
            579.42,
            579.76,
            580.11,
            580.45,
            580.79,
            581.14,
            581.48,
            581.83,
            582.17,
            582.52,
            582.86,
            583.20,
            583.55,
            583.89,
            584.24,
            584.58,
            584.92,
            585.27,
            585.61,
            585.95,
            586.30,
            586.64,
            586.99,
            587.33,
            587.67,
            588.02,
            588.36,
            588.70,
            589.05,
            589.39,
            589.73,
            590.08,
            590.42,
            590.76,
            591.10,
            591.45,
            591.79,
            592.13,
            592.48,
            592.82,
            593.16,
            593.50,
            593.85,
            594.19,
            594.53,
            594.87,
            595.22,
            595.56,
            595.90,
            596.24,
            596.59,
            596.93,
            597.27,
            597.61,
            597.96,
            598.30,
            598.64,
            598.98,
            599.32,
            599.67,
            600.01,
            600.35,
            600.69,
            601.03,
            601.37,
            601.72,
            602.06,
            602.40,
            602.74,
            603.08,
            603.42,
            603.76,
            604.11,
            604.45,
            604.79,
            605.13,
            605.47,
            605.81,
            606.15,
            606.49,
            606.83,
            607.18,
            607.52,
            607.86,
            608.20,
            608.54,
            608.88,
            609.22,
            609.56,
            609.90,
            610.24,
            610.58,
            610.92,
            611.26,
            611.60,
            611.94,
            612.28,
            612.62,
            612.96,
            613.30,
            613.64,
            613.98,
            614.32,
            614.66,
            615.00,
            615.34,
            615.68,
            616.02,
            616.36,
            616.70,
            617.04,
            617.38,
            617.72,
            618.06,
            618.40,
            618.74,
            619.08,
            619.42,
            619.76,
            620.10,
            620.44,
            620.78,
            621.12,
            621.45,
            621.79,
            622.13,
            622.47,
            622.81,
            623.15,
            623.49,
            623.83,
            624.16,
            624.50,
            624.84,
            625.18,
            625.52,
            625.86,
            626.20,
            626.53,
            626.87,
            627.21,
            627.55,
            627.89,
            628.23,
            628.56,
            628.90,
            629.24,
            629.58,
            629.92,
            630.25,
            630.59,
            630.93,
            631.27,
            631.60,
            631.94,
            632.28,
            632.62,
            632.95,
            633.29,
            633.63,
            633.97,
            634.30,
            634.64,
            634.98,
            635.32,
            635.65,
            635.99,
            636.33,
            636.66,
            637.00,
            637.34,
            637.68,
            638.01,
            638.35,
            638.69,
            639.02,
            639.36,
            639.70,
            640.03,
            640.37,
            640.70,
            641.04,
            641.38,
            641.71,
            642.05,
            642.39,
            642.72,
            643.06,
            643.39,
            643.73,
            644.07,
            644.40,
            644.74,
            645.07,
            645.41,
            645.75,
            646.08,
            646.42,
            646.75,
            647.09,
            647.42,
            647.76,
            648.10,
            648.43,
            648.77,
            649.10,
            649.44,
            649.77,
            650.11,
            650.44,
            650.78,
            651.11,
            651.45,
            651.78,
            652.12,
            652.45,
            652.79,
            653.12,
            653.46,
            653.79,
            654.13,
            654.46,
            654.79,
            655.13,
            655.46,
            655.80,
            656.13,
            656.47,
            656.80,
            657.13,
            657.47,
            657.80,
            658.14,
            658.47,
            658.81,
            659.14,
            659.47,
            659.81,
            660.14,
            660.47,
            660.81,
            661.14,
            661.48,
            661.81,
            662.14,
            662.48,
            662.81,
            663.14,
            663.48,
            663.81,
            664.14,
            664.48,
            664.81,
            665.14,
            665.47,
            665.81,
            666.14,
            666.47,
            666.81,
            667.14,
            667.47,
            667.80,
            668.14,
            668.47,
            668.80,
            669.13,
            669.47,
            669.80,
            670.13,
            670.46,
            670.80,
            671.13,
            671.46,
            671.79,
            672.13,
            672.46,
            672.79,
            673.12,
            673.45,
            673.79,
            674.12,
            674.45,
            674.78,
            675.11,
            675.44,
            675.78,
            676.11,
            676.44,
            676.77,
            677.10,
            677.43,
            677.76,
            678.10,
            678.43,
            678.76,
            679.09,
            679.42,
            679.75,
            680.08,
            680.41,
            680.74,
            681.07,
            681.41,
            681.74,
            682.07,
            682.40,
            682.73,
            683.06,
            683.39,
            683.72,
            684.05,
            684.38,
            684.71,
            685.04,
            685.37,
            685.70,
            686.03,
            686.36,
            686.69,
            687.02,
            687.35,
            687.68,
            688.01,
            688.34,
            688.67,
            689.00,
            689.33,
            689.66,
            689.99,
            690.32,
            690.65,
            690.98,
            691.31,
            691.64,
            691.96,
            692.29,
            692.62,
            692.95,
            693.28,
            693.61,
            693.94,
            694.27,
            694.60,
            694.93,
            695.25,
            695.58,
            695.91,
            696.24,
            696.57,
            696.90,
            697.23,
            697.56,
            697.88,
            698.21,
            698.54,
            698.87,
            699.20,
            699.52,
            699.85,
            700.18,
            700.51,
            700.84,
            701.16,
            701.49,
            701.82,
            702.15,
            702.48,
            702.80,
            703.13,
            703.46,
            703.79,
            704.11,
            704.44,
            704.77,
            705.10,
            705.42,
            705.75,
            706.08,
            706.41,
            706.73,
            707.06,
            707.39,
            707.71,
            708.04,
            708.37,
            708.69,
            709.02,
            709.35,
            709.67,
            710.00,
            710.33,
            710.65,
            710.98,
            711.31,
            711.63,
            711.96,
            712.29,
            712.61,
            712.94,
            713.26,
            713.59,
            713.92,
            714.24,
            714.57,
            714.89,
            715.22,
            715.55,
            715.87,
            716.20,
            716.52,
            716.85,
            717.17,
            717.50,
            717.82,
            718.15,
            718.48,
            718.80,
            719.13,
            719.45,
            719.78,
            720.10,
            720.43,
            720.75,
            721.08,
            721.40,
            721.73,
            722.05,
            722.38,
            722.70,
            723.03,
            723.35,
            723.67,
            724.00,
            724.32,
            724.65,
            724.97,
            725.30,
            725.62,
            725.95,
            726.27,
            726.59,
            726.92,
            727.24,
            727.57,
            727.89,
            728.21,
            728.54,
            728.86,
            729.19,
            729.51,
            729.83,
            730.16,
            730.48,
            730.80,
            731.13,
            731.45,
            731.77,
            732.10,
            732.42,
            732.74,
            733.07,
            733.39,
            733.71,
            734.04,
            734.36,
            734.68,
            735.00,
            735.33,
            735.65,
            735.97,
            736.30,
            736.62,
            736.94,
            737.26,
            737.59,
            737.91,
            738.23,
            738.55,
            738.87,
            739.20,
            739.52,
            739.84,
            740.16,
            740.49,
            740.81,
            741.13,
            741.45,
            741.77,
            742.09,
            742.42,
            742.74,
            743.06,
            743.38,
            743.70,
            744.02,
            744.35,
            744.67,
            744.99,
            745.31,
            745.63,
            745.95,
            746.27,
            746.59,
            746.92,
            747.24,
            747.56,
            747.88,
            748.20,
            748.52,
            748.84,
            749.16,
            749.48,
            749.80,
            750.12,
            750.44,
            750.76,
            751.08,
            751.40,
            751.72,
            752.04,
            752.37,
            752.69,
            753.01,
            753.33,
            753.65,
            753.97,
            754.29,
            754.60,
            754.92,
            755.24,
            755.56,
            755.88,
            756.20,
            756.52,
            756.84,
            757.16,
            757.48,
            757.80,
            758.12,
            758.44,
            758.76,
            759.08,
            759.40,
            759.72,
            760.03,
            760.35,
            760.67,
            760.99,
            761.31,
            761.63,
            761.95,
            762.27,
            762.58,
            762.90,
            763.22,
            763.54,
            763.86,
            764.18,
            764.49,
            764.81,
            765.13,
            765.45,
            765.77,
            766.09,
            766.40,
            766.72,
            767.04,
            767.36,
            767.67,
            767.99,
            768.31,
            768.63,
            768.95,
            769.26,
            769.58,
            769.90,
            770.22,
            770.53,
            770.85,
            771.17,
            771.48,
            771.80,
            772.12,
            772.44,
            772.75,
            773.07,
            773.39,
            773.70,
            774.02,
            774.34,
            774.65,
            774.97,
            775.29,
            775.60,
            775.92,
            776.24,
            776.55,
            776.87,
            777.18,
            777.50,
            777.82,
            778.13,
            778.45,
            778.76,
            779.08,
            779.40,
            779.71,
            780.03,
            780.34,
            780.66,
            780.98,
            781.29,
            781.61,
            781.92,
            782.24,
            782.55,
            782.87,
            783.18,
            783.50,
            783.81,
            784.13,
            784.44,
            784.76,
            785.07,
            785.39,
            785.70,
            786.02,
            786.33,
            786.65,
            786.96,
            787.28,
            787.59,
            787.91,
            788.22,
            788.54,
            788.85,
            789.16,
            789.48,
            789.79,
            790.11,
            790.42,
            790.73,
            791.05,
            791.36,
            791.68,
            791.99,
            792.30,
            792.62,
            792.93,
            793.25,
            793.56,
            793.87,
            794.19,
            794.50,
            794.81,
            795.13,
            795.44,
            795.75,
            796.07,
            796.38,
            796.69,
            797.00,
            797.32,
            797.63,
            797.94,
            798.26,
            798.57,
            798.88,
            799.19,
            799.51,
            799.82,
            800.13,
            800.44,
            800.76,
            801.07,
            801.38,
            801.69,
            802.01,
            802.32,
            802.63,
            802.94,
            803.25,
            803.57,
            803.88,
            804.19,
            804.50,
            804.81,
            805.13,
            805.44,
            805.75,
            806.06,
            806.37,
            806.68,
            806.99,
            807.31,
            807.62,
            807.93,
            808.24,
            808.55,
            808.86,
            809.17,
            809.48,
            809.79,
            810.10,
            810.42,
            810.73,
            811.04,
            811.35,
            811.66,
            811.97,
            812.28,
            812.59,
            812.90,
            813.21,
            813.52,
            813.83,
            814.14,
            814.45,
            814.76,
            815.07,
            815.38,
            815.69,
            816.00,
            816.31,
            816.62,
            816.93,
            817.24,
            817.55,
            817.86,
            818.17,
            818.48,
            818.79,
            819.10,
            819.41,
            819.71,
            820.02,
            820.33,
            820.64,
            820.95,
            821.26,
            821.57,
            821.88,
            822.19,
            822.50,
            822.80,
            823.11,
            823.42,
            823.73,
            824.04,
            824.35,
            824.65,
            824.96,
            825.27,
            825.58,
            825.89,
            826.20,
            826.50,
            826.81,
            827.12,
            827.43,
            827.74,
            828.04,
            828.35,
            828.66,
            828.97,
            829.27,
            829.58,
            829.89,
            830.20,
            830.50,
            830.81,
            831.12,
            831.43,
            831.73,
            832.04,
            832.35,
            832.65,
            832.96,
            833.27,
            833.57,
            833.88,
            834.19,
            834.49,
            834.80,
            835.11,
            835.41,
            835.72,
            836.03,
            836.33,
            836.64,
            836.95,
            837.25,
            837.56,
            837.86,
            838.17,
            838.48,
            838.78,
            839.09,
            839.39,
            839.70,
            840.01,
            840.31,
            840.62,
            840.92,
            841.23,
            841.53,
            841.84,
            842.14,
            842.45,
            842.75,
            843.06,
            843.37,
            843.67,
            843.98,
            844.28,
            844.59,
            844.89,
            845.19,
            845.50,
            845.80,
            846.11,
            846.41,
            846.72,
            847.02,
            847.33,
            847.63,
            847.94,
            848.24,
            848.54,
            848.85,
            849.15,
            849.46,
            849.76,
            850.06,
            850.37,
            850.67,
            850.98,
            851.28,
            851.58,
            851.89,
            852.19,
            852.49,
            852.80,
            853.10,
            853.40,
            853.71,
            854.01,
            854.31,
            854.62,
            854.92,
            855.22,
            855.53,
            855.83,
            856.13,
            856.44,
            856.74,
            857.04,
            857.34,
            857.65,
            857.95,
            858.25,
            858.55,
            858.86,
            859.16,
            859.46,
            859.76,
            860.06,
            860.37,
            860.67,
            860.97,
            861.27,
            861.57,
            861.88,
            862.18,
            862.48,
            862.78,
            863.08,
            863.38,
            863.69,
            863.99,
            864.29,
            864.59,
            864.89,
            865.19,
            865.49,
            865.80,
            866.10,
            866.40,
            866.70,
            867.00,
            867.30,
            867.60,
            867.90,
            868.20,
            868.50,
            868.80,
            869.10,
            869.40,
            869.71,
            870.01,
            870.31,
            870.61,
            870.91,
            871.21,
            871.51,
            871.81,
            872.11,
            872.41,
            872.71,
            873.01,
            873.31,
            873.61,
            873.91,
            874.21,
            874.50,
            874.80,
            875.10,
            875.40,
            875.70,
            876.00,
            876.30,
            876.60,
            876.90,
            877.20,
            877.50,
            877.80,
            878.09,
            878.39,
            878.69,
            878.99,
            879.29,
            879.59,
            879.89,
            880.19,
            880.48,
            880.78,
            881.08,
            881.38,
            881.68,
            881.98,
            882.27,
            882.57,
            882.87,
            883.17,
            883.47,
            883.76,
            884.06,
            884.36,
            884.66,
            884.95,
        };
    }
}